10115FBBD5F0FD0C=joelkillztime
12E3415185B6F587=DrUnclePockets
1961168861E632EF=Jonnydragon87
1C56DEE7ECFB16F9=Megamait
1FF49CB1E9216416=Mentalman
2586C2AC2348CA84=wikc
26024F3FB37E130B=Oxford Comma
2736EFB0B564FBEB=☾✯VIBRA
29D1026CF1D33AAC=bugboy16
29E5821AAAFF55AC=EdanashA
2E65A0CD98247827=tvoric_ip
2EEF5E0EE4FEEFC9=CanOfBeanstv
34F2AA3C605EBA22=Traman
3FCE25307D72F95C=-=DarkNight=-
437A5B26CE612788=TruNovemb3r
43DB43EB1344B9E4=Gormael
450B1FB6CC00C962=Cimmerian Berserker
4616C8140BC18898=Fox
46987574491615533=Zekolg
46987790524933326=ssmathias
46988241492941961=ZivenOfNine
46988586343850677=DysDaemoN
46988671547957787=breydondeath
46988686032050041=NanoKnight
46988702150141869=wick35
46988875140052019=Steve the Red
46988895251023712=CaptainHairy
46989052872758193=IrineuIB
46989151435867479=jacqves
46989217496542011=AdmiralNero
46989233815110186=Velgor
46989279500025709=TheDynamix
46989348364368778=guuge
470227CC23824CEA=Bastien Charrat
47102522160034938=noniwut
47238884769262097=Loboxx
47575229708017448=Maruki
48011519577724426=Barkev
48055046961280237=CrowM
48078707472295351=Juice10000
48082374862034080=mathieul
48113092550305863=ryan4422
48446154036115115=IllBMX
48510293846970110=al70
48992437026499627=Frumption
49020740199429460=sicnarf_ghost
49138508681739462=jessas
49139321827925513=KJ4UBL
49232547924798949=Yyxe
49280417458049635=Angelus75
49293131188123501=ChewyWeAreNotHome
49385584077246539=jasondude7116
49399439211334400=GarethGelert
49423768751633131=Johntodd
50367923865756040=Izquierdo
50686915044508984=Sunhero1990
50771713462719490=yoconmigo
50782640924070052=Bahamalaja
51442862324394244=captaincrinkle
51967777983368984=Lystraeus
51986C8415E760D8=Editor
52193453638661926=gianlum
52323631742774145=Rxxz_935
52323779914032902=rhif-wervl
52525083439822297=AsperaAstra
52563873002711846=El_Chango_Fumando
53095746028177767=StarHunter70
5668E603EF3536F3=Barl3y
5A6CBCD56B59A5C8=GandalfStorm
5BD729513D1CDB42=hjx_234
5C452811EB153820=T1CKED
5E0521E9296E1BC7=CellarCorpse
5EC63DF56C5E344A=Zathras
604A825333EEB37=Blade031058
6191CEE926C39435=Vale_of_Mist
64093784AF24497E=watcher80
6C2EF5B53E0E05CF=þ@Ɲ©Њ [רע כלב]
6CA7FDF065A5EF22=THaDs
71A879E03430BDE=Vinnath
73496C1B96B5EC74=jakejake1212
73B0CC764C704C15=ManimeminaM
76561197960271676=ninj00
76561197960294037=Dark Shadow
76561197960309668=TTripweed
76561197960326098=lord.chaos
76561197960355939=Gory
76561197960378590=All Seeing Eye
76561197960379224=aky
76561197960533126=HugoWango
76561197960582802=Capiachi (かぴあち)
76561197960601517=Gutzdahn
76561197960668255=Ǥɾᴧᴤʆᴧᵯᴧ
76561197960690260=Tubesock Fever
76561197960724987=Electro-Cute
76561197960828069=Kartong
76561197960835843=Rogue Demon
76561197961146690=ckw1984
76561197961152830=Skorpn
76561197961347790=Smigley
76561197961357135=Dapper_Kyubey
76561197961562314=thegreenebear
76561197961584409=ColRyWi
76561197961762994=krp`
76561197961929224=Kuggan
76561197962088725=Calidore
76561197962096213=ludo
76561197962325692=Enn
76561197962355140=Thalion
76561197962390748=Blarg Blargety
76561197962605367=Grumpy Frenchman
76561197962685461=The Frosty
76561197962721801=jeverman
76561197962765758=Shoff
76561197962792276=Sanquin
76561197962795537=Kugelfang
76561197962945263=Selce
76561197962993039=MrMental
76561197963513732=Manodith
76561197963550511=luckz
76561197963970247=Snqk3
76561197964083654=ACE
76561197964463670=Dirtfinger
76561197964683458=ryg3l
76561197965023850=Meester
76561197966044989=Taalon
76561197966056821=Kalto
76561197966419623=Ram Riegel
76561197966539822=Misfire
76561197966583192=KeanuGG
76561197966816816=Torkil
76561197967053235=Huronis
76561197967666012=Alex Duos
76561197967829992=Unarmed Bandit
76561197968046470=LeBourbonCestLaVie
76561197968127504=Skorpy
76561197968127504=Spicy Butthole
76561197968285815=bobFromReboot
76561197968493197=SaruMaaS ™
76561197968570176=lardvader
76561197968969536=T_Frags^
76561197969100519=Sk4ntrixX
76561197969506088=Flash
76561197969711323=Protall
76561197969797584=The 13th Duke of Wybourne
76561197969967253=Totoro
76561197970223743=[M&M's] Mynona
76561197970294110=FODDER
76561197970329560=Anaka
76561197970336337=Chorizo
76561197970361359==SEALZ=Dirka
76561197970371222=ShellShock
76561197970376819=Balthier
76561197970398415=Sir Drives ALot
76561197970413869=Spooner
76561197970424031=John Crichton
76561197970429845=Flying_Viking
76561197970433243=nikolausi2k
76561197970479298=Cloudsifter
76561197970490492=spork
76561197970491285=JP
76561197970509616=Rehab Submarine
76561197970515115=Buttonman
76561197970515125=TastyFirestorm
76561197970529212=Zenryoku
76561197970543489=drumer
76561197970550133=pixlblrr
76561197970560655=Sweeps
76561197970575588=FalconeX1
76561197970597599=Elite Pirate
76561197970603466=Moyer
76561197970620056=tribalix
76561197970625516=Black Isis
76561197970627488=gabrib12
76561197970643691=kowalski
76561197970672163=Wardog72
76561197970689646=MephiticSanta
76561197970701298=jc
76561197970723026=FoolOfATook
76561197970734478=SimithWA
76561197970740736=BigJim
76561197970759739=Happy Monkey
76561197970828367=Kiel
76561197970865324=deload
76561197970865743=Bistrum
76561197970881243=Mona Sax
76561197970907512=Overlord
76561197970910001=the_draconian2001
76561197970967476=donsalieri
76561197971006033=Giddamon
76561197971032260=DRCOLT
76561197971045463=Lolsmurf
76561197971084061=ErHe
76561197971179195=Tum
76561197971194149=NoDog
76561197971263730=|ОМОН| СМЕРТЬ ИДЁТ
76561197971275809=dvaudon
76561197971278478=Chemo
76561197971280908=Spitfire
76561197971300530=JBKingJR
76561197971307444=schnuddelfm
76561197971386549=zeff013
76561197971399102=Nene
76561197971417681=Anacro
76561197971452281=scottk8
76561197971489937=Thuzraf
76561197971510884=Ponokai
76561197971572128=MyS
76561197971577837=Hackt
76561197971617113=Gabrija_
76561197971751854=Psyphon
76561197971875119=Cpt. Red Rum
76561197971880107=Ran Yakumo 狐
76561197971921919=Morscher
76561197972040218=Droggen
76561197972159639=Argh!
76561197972283202=Groovaholic
76561197972291648=Granin
76561197972321073=Apo
76561197972345049=OrphanCrippler
76561197972346103=Zfalconking17
76561197972407565=VitrikMoru
76561197972409647=KingSplat
76561197972416820=BahbGTR
76561197972420717=dc77066
76561197972425375=Cole Scuttle
76561197972427557=Arkenheim
76561197972436662=ShadesZero
76561197972447064=Gildax
76561197972650303=Trupsterful
76561197972650441=Noa D. Vandett
76561197972703207=fuzfoot
76561197972770159=ludo
76561197972991041=Arena
76561197973063523=Moving Target
76561197973406460=twistershift
76561197973702644=n2odannyn2o
76561197973954266=Sameh
76561197974128583=bird_oprey
76561197974348265=qwikdrah
76561197974432777=Knilch
76561197974497099=Jay_the_Ostrich
76561197974498361=Brentastic
76561197974523470=j_uknow
76561197974796350=ZanderBayne
76561197974894356=ginafreeman
76561197975002957=bla-shka
76561197975336391=psmith1
76561197975561657=Syeinya
76561197975636162=Dead Again
76561197975957863=Spider Neruz
76561197975998965=Atomic Prophet
76561197976012995=lazerhead69
76561197976364041=PaSTiii
76561197976413650=darrinrobert
76561197976578939=Damoid
76561197976584523=FROTHY GIRTH
76561197976689503=Nikiou
76561197976710997=n00bXsicht
76561197977282652=Ivvor
76561197977348131=Ants In My Eyes Johnson
76561197977433520=Mezanor
76561197977441326=Glitchy Flea
76561197977721804=Crackers McKnackers
76561197977765981=The Angry Mick
76561197978073797=Raysa™
76561197978369518=SchwÄn_plays
76561197978374753=Mex
76561197978746145=Jack Daniel
76561197978856113=Bonedood
76561197979058844=Gabe the Gote
76561197979242451=Ghaldor
76561197979360400=thefraglord
76561197979713416=Calico Jackdaw
76561197979771962=Mike
76561197979907760=Ident
76561197979932104=spidergoats
76561197980008272=Wtaaaa
76561197980029902=zeeall1901
76561197980101005=Alien
76561197980136045=Danger_SDK
76561197980239353=[JPN]Tsuyoshi/MGR244
76561197980401647=James
76561197980500535=Urky
76561197980761413=-=DerWitte=-
76561197980810705=SteelWing -=PUMA=-
76561197980940460=Miigel
76561197981031312=Archi
76561197981187720=Goblinstomper
76561197981370611=VilianX
76561197981511319=BAMBO
76561197981773478=Burning Man
76561197981808590=Colex
76561197982130253=Neximus
76561197982483600=BigBadBelfour
76561197982627351=petrus6
76561197982641928=Papa.JoeMamma
76561197982698643=CarbonKitsune
76561197982969097=The Ninja
76561197983014609=sh_vitaliy
76561197983015891=Himo
76561197983042082=C0ND1T10NR3D
76561197983092080=BlueRayman
76561197983347436=Sammerfugl
76561197983360793=Uberdose
76561197983417253=homan
76561197983547079=desync
76561197983703211=medic975
76561197984004478=Jamez
76561197984034882=zhaarteth
76561197984215885=Cybersnake
76561197984244094=RetroGamer78
76561197984387736=Tulcate
76561197984699127=DemonEyedWolf
76561197984796262=mortality
76561197984817091=[OTG] DJ
76561197985028393=Csar
76561197985091388=Tuffnuts
76561197985149043=Dweller_Benthos
76561197985158614=Viky
76561197985250720=Locke
76561197985525744=Chemwars
76561197985531287=DiegoSwat
76561197985539353=Ex0Thermic
76561197985545618=Avaruu
76561197985811630=Anvar
76561197985852112=Phelan
76561197985871169=Quarn
76561197985944440=ViralMage, PhD.
76561197986589422=classic_scholle
76561197986662806=Palimar
76561197986674177=Feldjäger 1
76561197986820857=DD BRANKI FR
76561197986848077=Jeoffrey
76561197986902266=Endwyn
76561197986984322=[G]ohst
76561197986996285=Buck
76561197987308971=Artégis
76561197988408972=JoyfulReaper
76561197988743018=J1015814
76561197988761623=UltraChris
76561197989276020=Maximegede
76561197989699546=Mouse
76561197990001151=Doitzel
76561197990098182=RGH
76561197990127565=elcolono
76561197990154472=Manlythings
76561197990171585=Eightbit
76561197990176927=DjMonkey
76561197990186890=cfehunter
76561197990261920=Orex
76561197990348278=ktopuz2001
76561197990717698=kohellus
76561197990761161=Keks
76561197990827752=GatGambit
76561197990840842=afidv
76561197990923438=Gragnarot
76561197990993674=Ledolian
76561197991044432=Aidenf77
76561197991126539=Olafmenji
76561197991171439=hannes_diver
76561197991186327=murck
76561197991258260=apocryphalbob
76561197991308806=Cyndrax
76561197991341301=Darkwart (A)
76561197991448394=Fetas Krudthans
76561197991476987=Reck El Rojo (Yapuru)
76561197991500943=Wilder Hund
76561197991802350=Perkins
76561197991821979=Exosolar
76561197992081091=engillinn
76561197992091047=[Dewgong] MGlBlaze
76561197992271828=Silent83PL
76561197992381090=Honshiriuru
76561197992403006=Spacefreak
76561197992648632=CazeGibson
76561197992744508=MajorEssex_PROX12
76561197992774932=Skaypeks
76561197992837255=Reptile
76561197992872315=Ruemrodel
76561197992903592=NasjanG
76561197992968785=Bleutigre
76561197993080476=an.verni
76561197993111312=Focant
76561197993177875=Old and slow
76561197993193035=Lan
76561197993229684=Azufrus
76561197993246826=Skimps
76561197993256225=Rathius Saranoth
76561197993263072=FullSilence
76561197993354833=samwaaagh
76561197993363145=Detra
76561197993405840=UNBREAKABLE
76561197993487243=futsie
76561197993508430=TyMu
76561197993571477=heartcor
76561197993577211=Xenomorph
76561197993754830=Grok The Mad
76561197993761625=Mk77
76561197993857468=Calc-u
76561197993880579=Kakapo
76561197994016217=VictorVanGorbek
76561197994025455=Aether Fang
76561197994099527=Malvon
76561197994116175=Temmie
76561197994150126=bobflint
76561197994237132=ThiaguiN
76561197994302040=nandogaiofa
76561197994350519=kumm
76561197994436718=ElTurk
76561197994610916=Enrave03
76561197994716814=The Spanish Inquisition
76561197995209415=Yorae
76561197995220207=Clowning Glory
76561197995336435=Fálhkiin
76561197995481452=Mat
76561197995531576=Fooza
76561197995578202=Hangry
76561197995673871=bored222
76561197995740212=Abracadaver
76561197995770446=Gem
76561197995975625=Mancomb Seepgood
76561197996143812=mbfb1987
76561197996287231=Doom
76561197996298088=Tsujigiri
76561197996342971=Barbon
76561197996439172=Cpt. Crusher
76561197996453273=crazycactus
76561197996503359=[PB]Koroshiya
76561197996529491=Ash-Bringer
76561197996832027=caporro002
76561197996881625=Bluhndr
76561197996940648=Kitet
76561197996968076=paskaz
76561197997084722=Coco Do 12
76561197997252687=mirashic
76561197997289860=Metalogism
76561197997374638=Petomarmitta
76561197997575096=cheweb/faelenedh
76561197997639860=visualfred
76561197997752266=HVC FOGEY34™
76561197997760775=P@kete
76561197997808191=Sunbro Dave
76561197998021128=CDAcable
76561197998049637=Mortris
76561197998052292=Magikarp
76561197998076458=elcid
76561197998117242=Charun
76561197998217200=SkippyMcSkipperson
76561197998220576=ADBard
76561197998308030=r4ssputin
76561197998311635=Saaper
76561197998321747=Bullysock
76561197998338433=Mensenmentro
76561197998463966=DragonSlayer
76561197998511935=Talos-13
76561197998531606=Ogden
76561197998603959=Guiderin
76561197998643259=Real Human Bean
76561197998816015=svolochsh
76561197998904967=braxon99
76561197998985536=demon1432
76561197999093080=Alastor
76561197999107633=Inara
76561197999119441=OniOni
76561197999156011=[MINION]Pathetic Boy
76561197999225822=rudineicm
76561197999261308=Spriggan
76561197999298619=Frostymm
76561197999316178=cheli
76561197999331769=OOF
76561197999409475=JustSpaceThings
76561197999422943=HarryPotSmoker
76561197999447934=Wuwei
76561197999749673=Nybbas
76561197999787796=Hugo PRT
76561197999855219=Eti the Spirit
76561197999859030=An Gremlin
76561197999930763=MeetTheBadger
76561197999987442=Kirb is in the air!
76561198000020735=Bocephus
76561198000182572=Slothonfire
76561198000189644=Scott MacAllish
76561198000208691=Johi
76561198000220576=Sagefire
76561198000275821=highstakesjenga
76561198000570111=aks
76561198000700431=WaGagil
76561198000726596=DizzY
76561198001022877=Metal
76561198001038058=Geass
76561198001096697=Ilead de Sancremai
76561198001161726=Shadark-14
76561198001170060=R3n4rd
76561198001204337=aml123
76561198001206822=Metalfish
76561198001304625=ExarD
76561198001542367=Terra
76561198001564109=rollotomasi
76561198001617753=Gene R
76561198001638301=tarnok
76561198001795664=Alpierro
76561198001947011=Teknomage01
76561198001978553=Tiake
76561198001995216=Sammo
76561198002016669=Ankh
76561198002132036=CoolFace
76561198002329154=Ultramontanaro
76561198002463412=kilo
76561198002523132=#NeverGiveUp
76561198002570235=Laguna - ES
76561198002594114=Roby1974
76561198002749823=munit1[GER]
76561198002757813=Captain France
76561198002826311=carbon111
76561198002904789=Empyrius
76561198002920407=||||||||||
76561198003145733=Veldimare
76561198003197465=chelovek_X
76561198003418515=dbit50
76561198003475976=Alvaro Zeno
76561198003590868=simraptor
76561198003652924=HalvZeri
76561198003678448=Tune
76561198003695940=MetaCitizen
76561198003800981=sSs0L
76561198004171382=Tobynator
76561198004176880=[1DR]Sgt-Kek^
76561198004291393=Koblovda
76561198004391071=Stralesh1970
76561198004452755=Adler
76561198004622231=Panhandle Slim
76561198004623383=Omega-14
76561198004670704=Spidey
76561198004950358=Payne
76561198005055560=Janaz
76561198005090530=vasquez
76561198005183792=Darkside2k
76561198005222917=Milk Boy
76561198005333727=Koti Nexus
76561198005503774=Ey Baws
76561198005618041=p4ing0d
76561198005622299=Freedead
76561198005649479=Chris Casman
76561198005665488=Titler
76561198005710970=ANTtheEMPEROR
76561198005711935=Fly 
76561198005798249=Phobos
76561198005798566=Eumalan
76561198005814254=Hretsam
76561198005826230=Hippopwnamus
76561198005868288={o,o} Rip Mr Hobo with a shotgun
76561198005918744=marioeb
76561198005932082=unknown
76561198005950812=eswat
76561198006161152=stew014
76561198006244949=webgadget
76561198006374015=ПАНЫЧ
76561198006394656=Lukemaster
76561198006402108=cballs63
76561198006464670=Zer
76561198006488402=ch1seller
76561198006499473=Glandath
76561198006562120=DogM
76561198006576178=Eightball
76561198006605669=Demaros
76561198006701516=Dennehy
76561198006740125=🤔BROSWAGONIST🤔
76561198006817142=Paiea
76561198006834061=mol
76561198006848187=Aerfox
76561198007035633=Manaxam
76561198007108270=Neostalker
76561198007182652=Robatty
76561198007193533=Wolfvera
76561198007268034=XenoDrool
76561198007279403=Hyrule Chosen One
76561198007294093=Lord Wardo
76561198007448043=job
76561198007524880=san-romanio
76561198007525861=nuBoBap
76561198007577172=sekacek
76561198007587385=ACiDNiNE
76561198007738001=BioMage
76561198007807461=dolphin9igorjan
76561198007814309=Sgt Bratt
76561198007824008=SfMx
76561198007854328=Doc
76561198007864049=GrexNoctis
76561198007890310=FranPitt
76561198007922102=Hans Solo
76561198007931679=Vyse
76561198007933844=Yev K.
76561198007978961=Doblocus
76561198008011152=MouneM
76561198008062230=sikrais
76561198008229920=locustbill
76561198008287643=jed67
76561198008479711=Jaggid Edje
76561198008495949=NavarreVal
76561198008569402=Serginator
76561198008638242=kirkzhom
76561198008777614=BlackD
76561198008785958=dgoodup
76561198008981573=treblamfr
76561198008989027=Asarcron
76561198009003074=Nic Of The Rocks
76561198009114257=Takiwaltek
76561198009139883=WorldSecurities
76561198009236241=Magier_Rhonin
76561198009332671=TeshacK-[CZ]
76561198009337637=Spacekiller86
76561198009385302=syn1k
76561198009565643=Sheilar
76561198009711153=Touitoui
76561198009943656=angerd
76561198010022910=graemarch
76561198010055085=moerty
76561198010082668=hyperjoule
76561198010125930=Luceffe
76561198010132961=Pagalasinbobo
76561198010207327=Homestead
76561198010398232=GarthVader
76561198010421861=black.hole.sun.sphere
76561198010543343=Laun'
76561198010549091=Biohazard Joe
76561198010583501=Lucy-Fur
76561198010694121=Ultrakill
76561198010877726=Alex_RUS78
76561198010931006=Rambo [DE]
76561198010960324=V.
76561198011022645=SirLootalot
76561198011156070=krieglich
76561198011183586=fuer
76561198011208907=Kal
76561198011447058=Shacko
76561198011517898=N'Doki
76561198011571149=Bosse
76561198011662200=Atronah
76561198011895234=prizrak83
76561198011933199=[I-L]Zelphie
76561198011989045=Daëfaër
76561198012138941=Eron
76561198012327081=Mr Bubbles
76561198012433506=Manic-Minnow
76561198012563899=De Wee no Westen
76561198012620152=Mindsweepx
76561198012794464=aymericgremillet
76561198012946559=Piu🐦
76561198013005282=Mr.Jimbo
76561198013036544=Atreydes
76561198013059875=Shirime
76561198013217458=Diddly Trout
76561198013298182=Maharian
76561198013481961=youngmerlin1
76561198013549840=Dire Phonic Thresher
76561198013606016=[3XK] PlanckStrahler
76561198013643200=Pimack
76561198013712216=Spitfire
76561198013814540=Falk
76561198013863073=DeaDblasted
76561198014069065=Geneosis
76561198014071290=Jsnhlbr5
76561198014229121=Crimson Crow
76561198014296192=SpaceTaco
76561198014308969=DARKVIDOK
76561198014318193=Kwelduvel
76561198014522173=NameIstProgram
76561198014572504=bankaman101
76561198014755215=H00d1yN1nj4
76561198014898315=sinalma
76561198015043158=castorpollux
76561198015066507=Senry
76561198015220068=Nassegris
76561198015500525=kRUk
76561198015513853=WibbelWabbel
76561198015541562=Panzergoat
76561198015574872=|FP| CLAYA
76561198015663474=Alf
76561198015666800=toximitso
76561198015796857=toddsullivan1230
76561198015822947=Datasette
76561198015852452=^4guthroom
76561198015902829=Tpayp
76561198016021078=Corex
76561198016123405=Bergspalter
76561198016134046=HI-NRG
76561198016158942=Jack Kanoff
76561198016289204=Hephaestus
76561198016366251=EN16M471C
76561198016440082=Xariann
76561198016494555=-K-
76561198016510720=MaFaMi
76561198016550493=SIKERIM
76561198016584395=SchwarzBaer
76561198016616344=kobra
76561198016815299=BlackburneGambit
76561198016853168=MineraL
76561198017108536=Ozym4nd1as
76561198017456805=David_R
76561198017515719=Argaat
76561198017660692=Mischievous
76561198017683605=Lone Wyvern
76561198017690910=el jaquer
76561198017871212=Nazgul
76561198017963185=Kellens
76561198017986233=Camulus Amsden
76561198018019866=Arios Staro
76561198018022591=[AGT:LW24] Lupis Wolfe
76561198018313383=Zethandriel
76561198018405113=zommyzoo
76561198018441097=Nomos
76561198018649850=DazBoz
76561198018702435=Raven
76561198018706830=Cedrok
76561198018864974=tetsujin_24
76561198019125218=edhel
76561198019368898=MCDarkness
76561198019678794=tolliandrus
76561198019719283=BubbaHoTep
76561198019743777=blauwvis
76561198019814217=Its Naht a Toomah!
76561198020041076=Psycho Dad
76561198020259051=Chibitenshin
76561198020282089=unknownhollow
76561198020355516=Magikstuff
76561198020507561=Hagar
76561198020687097=Dizzy_Sloth
76561198021015452=ladyeternity
76561198021076592=Blueberry
76561198021089602=Sperg Ferguson
76561198021139830=matteolian
76561198021234133=Toul
76561198021295652=Bosluis
76561198021307732=[PI] - Raevyn Darke
76561198021372081=pon POLSKA
76561198021570373=JR
76561198021571974=KryHavoK
76561198021580981=Cobalt Blues
76561198021616319=Melandrios
76561198021729575=alexcool333
76561198021851169=WeNeedU
76561198021972878=Paquera
76561198022106182=sfb496
76561198022108754=Death and Hunger
76561198022188825=JZeroOne
76561198022211744=Wa3000
76561198022239875=Litti
76561198022367466=Rakust
76561198022501040=Damleir
76561198022579175=PepeHands
76561198022581038=sxfie
76561198022628551=Landri Faria
76561198022825969=Groshin
76561198022907086=Shameful Nipple Boy
76561198022925614=Jujumatic
76561198023038595=defractus76
76561198023094411=pfiffo
76561198023155837=Domagoj
76561198023191667=jimzks
76561198023203700=municx
76561198023259771=Ku81k
76561198023273031=Cavalyr
76561198023396850=Zeion
76561198023525774=AltEisen
76561198023610459=MrLurker
76561198023707084=l4st3v3n
76561198023785456=Thyrus Tide
76561198023976081=EzE
76561198023991362=Hall
76561198024116514=Voodoo Reaper
76561198024152094=Abyzmi
76561198024339214=oddracer996
76561198024412858=Kiraius
76561198024512428=Green-Guy Geno
76561198024623497=Tobastion
76561198024629466=Otudas
76561198024656278=Bertsensei
76561198024826130=Бу-га-га
76561198024942017=Ironcinder
76561198024962590=trulylostheaven
76561198024987767=Azuric Kern
76561198024988587=Voldrang
76561198024996222=Orilog
76561198025015064=scarey
76561198025024991=HandOff
76561198025099206=Saxer
76561198025117462=bleater
76561198025120007=Yonexima
76561198025135493=gdl
76561198025183047=Daxapher
76561198025230728=p!ckles
76561198025283579=zooltool
76561198025310989=The Ghastly Spectre
76561198025337622=UggaBooga
76561198025338477=Adarynin
76561198025385712=Blackleeter
76561198025506910=Eps
76561198025521088=AterDraco
76561198025562329=DStar7
76561198025753307=That Guy With The Shades
76561198026093811=Red
76561198026151830=Shadow_Arrows
76561198026178141=Fane
76561198026184756=j2austin
76561198026255341=Dis76
76561198026322892=Valkerion™
76561198026342793=Popoff
76561198026364330=Probably Some Kinda John
76561198026459739=that's rough, buddy
76561198026561843=DI-Pengui
76561198026799645=hippydanish02
76561198026837764=Derksmash
76561198026894177=DomDiaemus
76561198026980246=Eilucat
76561198027032764=HaiNowai
76561198027033095=__BaLd__
76561198027100899=Racines
76561198027302553=Five
76561198027335148=baph.online
76561198027406917=Panflakes
76561198027429859=Sergeant Mad
76561198027470531=badwolf
76561198027477865=[ITA] Helm844
76561198027490781=treborscott
76561198027501023=Satanas09
76561198027696206=DanyEli
76561198027802312=Marcel
76561198027820769=John McSteed
76561198027848888=Valenchica
76561198027908727=mr_snips
76561198027970688=RPG0007
76561198027986211=Takk806
76561198028015418=Ollowain
76561198028111500=СТАРВАРЫЧ
76561198028111961=Caster
76561198028152755=Chu
76561198028260485=Lord of Chaos
76561198028277815==AC3=Lhotse5
76561198028340712=YnysWarlock
76561198028571459=Bumblebone
76561198028716052=Nico Time
76561198028807972=Lil'Ori
76561198028888605=Sharhin
76561198029167341=obside
76561198029249931=rota
76561198029377480=SuhayBambino
76561198029396378=Synturion
76561198029437610=Dorian TEK Katradouz
76561198029456289=Bear of The Forest
76561198029601066=Arek
76561198029721608=LALM
76561198029795969=Ramon
76561198029854446=Imigrant
76561198029916931=Smygfet
76561198029916993=bansheehunter
76561198030035134=Bilgrok
76561198030112787=Hassi
76561198030126541=Forhetz
76561198030134708=Sysimbrium
76561198030151232=Tom
76561198030193690=beasley81
76561198030210437=vincentmun
76561198030317289=Гангрена
76561198030447439=TATZELWURM
76561198030447439=Tatzelwurm
76561198030646304=vhorador
76561198030648922=nateturner1990
76561198030891555=xJxCZ
76561198030907220=xantherous
76561198030998581==UniSol=Nova
76561198031012097=Zabaton5
76561198031038822=Starwings
76561198031052295=NPCtrainer
76561198031066425=capt.matt
76561198031070977=Lindy Bomber
76561198031139769=deunanknute
76561198031186377=restitut_orbis
76561198031219724=afkafka
76561198031420270=Аутсайдер
76561198031481352=jvox
76561198031491141=Creel
76561198031559898=raheacock
76561198032080873=bad-dragon
76561198032107758=atwells
76561198032147837=Maffy226
76561198032165912=Diamonddoge
76561198032259114=Slybby
76561198032317068=andy
76561198032320471=ShepherdBook
76561198032336150=mushette
76561198032369633=Lupint
76561198032472722=ThammuZ
76561198032725948=Ghost Rabbit
76561198032846301=TIE257
76561198032945350=johan35
76561198033034516=TheScythe
76561198033071889=Podrera
76561198033386420=Tortelle
76561198033451833=gerry
76561198033533970=ChanBara
76561198033675840=O r a
76561198033897998=Estragon Helmer
76561198033898894=Preparus Rectalus
76561198034025197=Blackness
76561198034041136=карлсон
76561198034145436=Eonandahalf
76561198034158682=Uthus
76561198034219444=Peacebomb
76561198034273202=LocustLab
76561198034424976=Azryel The Harvester
76561198034438546=Sid
76561198034495021=reunion
76561198034514547=Fatal_Xception
76561198034595918=healdhj
76561198034619857=Anubis
76561198034850030=KamiSeph - Torp
76561198034969488=D. Buttersnaps
76561198034972030=bastian74
76561198034987548=Basti
76561198035299827=SaarleSad
76561198035311479=maxflowCC
76561198035352965=dbytz
76561198035675616=Finanzamt
76561198036094307=Aikenaro
76561198036202257=Shadowfire
76561198036461856=Ireallyambert
76561198036470796=AnubisAlpha
76561198036584326=Flex
76561198036615501=k1LL3r
76561198036676066=^[Morderca z legend]^Markvs95]
76561198036745282=Hellfire
76561198036765810=tundra
76561198036964113=elbrutus2000
76561198037002143=Pickled Human
76561198037052541=Frazzzy
76561198037239867=ChiefOfHalo
76561198037253791=Kirby
76561198037344311=President Morty
76561198037398283=RedQicka
76561198038175708=Bregveleg
76561198038470508=Evo
76561198038867226=Zloi Mickey Mouse
76561198038959492=clownpunk
76561198038987486=로씨안블루
76561198039044789=Forro
76561198039126704=_RIC_
76561198039152277=BIZaGoten
76561198039191582=Vash
76561198039448985=Dresden
76561198039591005=Vanes
76561198039669122=Trollin
76561198039723465=Prì
76561198039895775=✬Sned♫♪
76561198040015150=Mr Wumbo
76561198040073995=Jaellu
76561198040208674=Tursonaki
76561198040524003=Nu7s
76561198040533481=Khrianne
76561198040535648=Marley and Meme
76561198040670731=Ferannon
76561198040907210=FaultyCode
76561198040907999=Mana81
76561198040936414=☩ Knightz ☩
76561198040948286=careywinkle
76561198041002814=Captain Spaulding
76561198041059386=Yotika
76561198041165640=Banshee
76561198041216693=The Entire Population Of Canada
76561198041237207=HarryPower
76561198041256671=Stinger
76561198041261233=moonlight
76561198041297321=refurinn
76561198041367433=mastyr
76561198041429814=REDACTED
76561198041555332=mareastra
76561198041568117=Denvil9
76561198041643670=dimikus
76561198041667594=Redeemer#81401866
76561198041716028=Xerxks[NL]
76561198041732086=Goodspeed1987
76561198041858554=Minastor
76561198041992224=Professional Bee Fucker
76561198042026604=kevintpsheehan
76561198042026980=Shift
76561198042048703=Narsan
76561198042061795=LeMuRenZohN
76561198042071132=VOidStalker
76561198042076190=skurpuleznui
76561198042107198=dumplin
76561198042118091=XwhirlwindX
76561198042269431=Endless
76561198042272428=Gravity
76561198042286220=✈ Uther
76561198042332533=GenoHacker
76561198042353087=LEJOK
76561198042406418=Arctic
76561198042434948=FrankenFAL
76561198042437784=Vedi
76561198042558328=Adrianmeb
76561198042579362=Harkonnen
76561198042592939=DominatorK5
76561198042668411=Pinslate
76561198042705636=PischPosh
76561198042762876=TheDayX
76561198042997477=cinereoux
76561198043014458=GHDF Officer Flen
76561198043032007=virgil_99
76561198043043899=Dstad
76561198043044710=babell87
76561198043216256=Robert
76561198043260018=aquila8008
76561198043264600=yeehaw
76561198043266685=OcHii
76561198043335891=Ephemere86
76561198043404627=Blasphemy
76561198043485063=nick3109
76561198043531333=[HITS] BOT Kodaav
76561198043656418=Ellny
76561198043770005=RhinoZombie
76561198043817671=The Talking Viking
76561198043888247=Optimus Fridge
76561198044030528=DogManDoggit
76561198044035402=Lil' Stinky
76561198044238447=🦇
76561198044275551=Nakelo
76561198044444481=R.I.P.
76561198044477043=<SPECIAL>Sargon The Grape
76561198044477043=Sargon The Grape
76561198044477043=The Jigsaw Killer
76561198044815011=HeadWound
76561198044831689=Bad kitty
76561198044890795=TormenT
76561198044902522=sirllamalot
76561198044911792=Eveaustria
76561198045036188=jamba33
76561198045054063=Doberman
76561198045059704=Joshua
76561198045132411=FroZen
76561198045273242=+Saint Grall+
76561198045507831=Inewbz
76561198045533168=Chris Tamos
76561198045584919=ArDi0o
76561198045692119=Mad_Duck
76561198045817054=Cri0stal
76561198045880891=Fidelia
76561198046022825=freedomforceff
76561198046123591=KoaLAD
76561198046230246=Jarhead329
76561198046259557=Mandalorian
76561198046311930=mischievous
76561198046509786=asmodeusPT
76561198046687671=cerepuka
76561198046891019=Otto Von Biscuit
76561198046945547=ghostintheknight
76561198046970868=smiffyjoebob
76561198047110408=JK4m3r0n
76561198047159087=Tele
76561198047202972=K i K i L A L A
76561198047269625=d12356790
76561198047450362=Volraj
76561198047461189=Adamars
76561198047474668=danknox1977
76561198047501644=electric
76561198047532685=Tanadanar
76561198047613266=Skulatikus
76561198047727855=Fmaiate
76561198047819865=Lucifer
76561198047850088=Radioactive_Lion
76561198048118465=Rathaxes
76561198048134168=Nyssi Reyeus
76561198048252767=ColonelEtzel
76561198048310494=Varrec
76561198048355802=Vicious Bug
76561198048435323=1st of The5
76561198048579185=markmark42
76561198048651970=Iskandar
76561198048677706=Nemos
76561198048721713=hopishaman
76561198048817233=DjFibretek
76561198048867109=JackOverlord
76561198048934061=scabw
76561198048940885=Wactonsan
76561198049007591=Kristophy CTx
76561198049011651=GoblinSlayerSan
76561198049087699=Deercowpal
76561198049129358=wasmarkhere
76561198049132646=Voratus
76561198049137960=Bevychan
76561198049159566=Slimy DryCough
76561198049330548=Macarthius
76561198049451079=Sushamo
76561198049693306=ossa88
76561198049794050=kenneth.underwood
76561198049825095=clampi
76561198049864695=F4dingEcho
76561198050030202=Archangel
76561198050057829=SerasVictoria
76561198050100093=Kilroy
76561198050165541=GrimBlade
76561198050188614=Evgeniy
76561198050227740=crunch3r
76561198050327946=Poor-Jies
76561198050571147=bramblepan
76561198050632883=Agnoristos
76561198050843013=Young Obi
76561198050916678=nightcouncil
76561198051330157=KenJayz
76561198051348360=✪ bouthzy
76561198051458247=CyberDog
76561198051835773=beerboyka
76561198051841846=Oneesis
76561198052066527=gluk48
76561198052132294=ٴ
76561198052171149=Gios
76561198052173134=Kigorian
76561198052195586=deadroth
76561198052209247=rtibbs30
76561198052225415=Loz Cheeky
76561198052317577=Nimienne
76561198052325253=Tabula - Rasa
76561198052349850=Freddyy
76561198052352130=WuffWabbit
76561198052372742=Rikki-Rose
76561198052432809=Klamsi
76561198052437282=Sladi
76561198052445606=Gimhafnu
76561198052487488=donrpope
76561198052537776=Ravenscar
76561198052544105=Herrbert Speck
76561198052554755=ElectricMessiah
76561198052628799=Mc.Sim
76561198052667917=TPunkt
76561198052690335=Cody
76561198052706267=crow23
76561198052902907=Balthazar
76561198052925819=ОГРАЬПЕЦ
76561198052946166=Ugubu
76561198052968832=milkyway05
76561198053034306=AckeT
76561198053055319=Ꝉҽցìօղ
76561198053057433=Petrovich62RU
76561198053243737=diannasilver
76561198053252996=Marquinhos põe a peça ao vivo
76561198053455641=★Erro★
76561198053470410=sacred59
76561198053515239=snguner
76561198053569444=nyebee
76561198053628958=red
76561198053697451=linderebros
76561198053752526=Hellzicke
76561198053782756=Da_Watcha
76561198053812424=Illiady
76561198053813849=Yukor
76561198053869518=leesas.sx
76561198053968301=Vladinhoos
76561198054000928=<REBOOT>{otto1232}
76561198054084239=Venor
76561198054149756=PandaOfSorrow
76561198054170820=Massam Effeoffe
76561198054366481=Blerg101
76561198054375538=Khan
76561198054401221=LikeAFusion
76561198054406775=Luke Gs
76561198054419081=lnomsim
76561198054460917=KTofu
76561198054510461=Scareu
76561198054582000=Mienai Panda
76561198054619084=Ixia
76561198054630050=Scythesickle
76561198054664539=johakeyz
76561198054702733=R@v3n1tE1986
76561198054794590=analogmog
76561198054864623=sp
76561198054883359=Glorioux
76561198054897536=C-mers
76561198055189472=parret003
76561198055379245=Woody
76561198055437109=kayzee
76561198055462653=The_Quiggles
76561198055488354=Litintha
76561198055514072=Aceacin
76561198055549581=BloodaxeUK
76561198055557006=SolJay
76561198055579964=tTSubject
76561198055616537=Ferrofluid
76561198055687730=mekamoari
76561198055711733=nameless-ruler
76561198056248420=eznightman
76561198056484836=Level
76561198056571877=Estrane
76561198056676345=AmberAnvil
76561198056917648=kenandali
76561198057125109=Badblackwolf
76561198057386920=TwitchyKnob
76561198057399702=Solorhis
76561198057432009=KriegersRobot
76561198057683333=Zero Synergy ツ
76561198057699548=silico
76561198057713539=ch1000
76561198057828302=wobowitten
76561198057842838=♣LuckyShot♣
76561198057885991=crovaxis
76561198057950211=xXFat_Dubsk1s51Xx
76561198058085372=Daedroth
76561198058131961=Elvarg (level-83)
76561198058177035=Sol
76561198058222707=spookyluffy
76561198058308404=darkstar0086
76561198058349312=DremaN
76561198058737997=Brother Pillov
76561198058742405=Enceladus
76561198058813621=alex.shenouda
76561198058846963=JeptheJinxed
76561198058943157=predoVT
76561198058946193=DestroyGK
76561198059155334=KafkaExMachina
76561198059223575=CgoMarc
76561198059526402=SunPraiser31
76561198059864101=JaxOfBlade
76561198060060647=Secuna Wolf
76561198060060647=dreamer-71
76561198060124699=Cronation
76561198060399426=Deswer
76561198060484327=Draptor
76561198060558413=VOLAT
76561198060577771=snackattack98
76561198060579760=Ecruteak
76561198060671611=Syshyad
76561198060787975=G_A_V
76561198060798989=[7th] Mamont
76561198060849705=Choolak
76561198060866050=dannaeil
76561198060892633=t0Mi87
76561198060976491=robvolz70
76561198061183664=IOOimanOOI
76561198061452323=Temsik Red
76561198061541972=J0YSTICK GAMING
76561198061557048=Alex5544
76561198061757968=Morkaru
76561198061863902=SuperLuciferX
76561198061968611=delarius21
76561198061976365=itty bitty tiddies
76561198062250375=VolksMohawk
76561198062419436=misskittycat
76561198062575279=GenuinelyIronic
76561198062619440=b_vizzone
76561198062652772=Kronos
76561198062752589=Revenge Of The Horse
76561198062833978=Tryteg
76561198062921219=antihalo101
76561198062931609=Crokkop
76561198062997012=raymondba09
76561198063194628=LoganMaster8
76561198063331300=LOOTBOT.EXE
76561198063516811=rony
76561198063542613=Escvor
76561198063644005=xCrammitx
76561198063807942=M_yraah
76561198063883960=Junipei
76561198064006120=Canal Ludologia
76561198064007070=hron84
76561198064094533=pitmoggy
76561198064430113=TheDarkMage
76561198064453258=Nikolas
76561198064718034=Einwegtoast
76561198064723337=Galars
76561198064756606=apofys
76561198065223476=belette1881
76561198065421826=Vökkun
76561198065477689=Luftraumm
76561198065736658=Street Cone
76561198065815544=Kokey
76561198065885996=piuzera
76561198065971265=roDIZZZZle
76561198066103791=cravingsushi
76561198066179252=ape_on
76561198066508501=Trevelyan
76561198066569662=HDreamz twitch
76561198066645121=Rumfish
76561198066878234=harri.hassinen
76561198066899735=GAPLANT
76561198066945814=perxers
76561198066955383=Serafim
76561198067001651=Sieg
76561198067125549=gonydact
76561198067127540=jen0f0nte
76561198067230786=The Archangel Zarael
76561198067373581=JoeGeo1
76561198067406785=seabas57
76561198067602816=Ethice
76561198067603416=Krysten
76561198067616290=FeonixPerson
76561198067748892=petrichor
76561198067838013=Clown
76561198067851360=Joeoct
76561198067957015=jump
76561198067974994=centerbirdx1
76561198068159784=KovacsUr
76561198068234732=selcomad96
76561198068261023=Box Ghost
76561198068346967=illegalnoodlehub
76561198068512772=Duds
76561198068644171=MarfeeCZE
76561198068718424=MrX
76561198069004211=Guilpy
76561198069090701=Manly Astronaut
76561198069228397=Pwnytailz
76561198069302644=Krackasourus
76561198069342542=Alcash
76561198069476350=Rolf Harrison Ford
76561198069524269=[VH] Dark Angel
76561198069541671=Zekklash
76561198069977214=ZeroAtrix
76561198070133161=Dracov2011
76561198070229330=Grem™
76561198070253925=A Space Knight
76561198070335672=haineko
76561198070440743=EcLiPsEShow
76561198070512984=Trashgriffin
76561198070556032=injoynit
76561198070585809=Noodles
76561198070606353=TheKharjo
76561198070791053=Zelphalya
76561198070834944=Doc9003
76561198070915574=<GREEN>Doobs
76561198070977837=Vond
76561198071051775=nickftw1234
76561198071061208=krofort2
76561198071085116=Bowoso
76561198071211798=Maes
76561198071696643=dehard2000
76561198071706279=SweetWillyBones
76561198071765382=EvilYep
76561198071788147=M4D_SCI3NT15T
76561198071881321=iliΩ
76561198072051759=R.E.M
76561198072063558=Gladalex
76561198072065063=Llohr
76561198072225320=zon
76561198072383654=Dyx_54607
76561198072435138=Chiruno
76561198072472663=Thermonuclear Fusion
76561198072850390=McSandman (Frank)
76561198072855575=Andin
76561198073149374=[OV25] -- Bastion --
76561198073175453=nttelefantul
76561198073360453=Stirkar
76561198073455206=Fletcher
76561198073559813=Mnt
76561198073587848=Languste
76561198073749168=Shed
76561198073760407=Ashurlee
76561198073880400=dole
76561198073904210=Naalith
76561198074430738=Katsuo
76561198074625997=vlaadaone
76561198074686793=aliceasgurs
76561198074824495=J~
76561198075031346=jollyanonymous
76561198075346569=john22xx
76561198075477757=Dunderhead
76561198075489969=PopCoRn
76561198075507353=We´re all mad here
76561198075564038=RedCor
76561198075665718=Chromic
76561198075706630=Derpy la tueuse de Muffin
76561198075792740=TheOldGuy
76561198075932928=Exavious
76561198076249188=Dracoji
76561198076266815=RedDragon12
76561198076302203=Legodeppe
76561198076449323=kobold0071
76561198076451395=Eduardo
76561198076582831=Stuff Happens
76561198076681468=road to 1k
76561198076743334=KVkilled
76561198076948458=Foxsany
76561198077012722=riko42
76561198077027114=livegeekdie
76561198077627949=Redspy
76561198077781407=Len-eh
76561198077787065=Verbatim
76561198078002321=Good luck
76561198078052451=Animus_V0x
76561198078200691=vb
76561198078212085=helpful tommy
76561198078272196=Wacek
76561198078440725=whiteblur
76561198078463903=Ronnykingske
76561198078493971=ImRecycled
76561198078736542=Alexandrium
76561198078831680=StainlessSteelCynic
76561198078899262=ShadowPuppeh
76561198079046666=Margi
76561198079118917=Astorath
76561198079228428=Foxerino
76561198079273693=Darkn3zz
76561198079324581=Antreya94
76561198079345892=bostanu*****
76561198079413193=SpectralPanda
76561198079464817=Melmak
76561198079472995=V.
76561198079555945=mathewmorris
76561198079725867=Mok
76561198079785670=Lena Oxton
76561198080011411=Ratan Kabidge
76561198080058310=DredgenWind
76561198080173059=Veroxyl
76561198080297416=Pogathor
76561198080511240=layeer
76561198080627797=MRV
76561198080696185=fischdeo
76561198080700453=T O R B E ¯(ツ)/¯
76561198081061341=Celab99
76561198081160057=Lebanaine44
76561198081420893=abraxas
76561198081427043=Edeliany
76561198081520819=SEPU
76561198081733799=Pan Nikt
76561198081859932=CSTG-shrekjsy
76561198081966639=Omegadragoonx0
76561198082004246=Hughmaniac
76561198082009096=Shalomandra
76561198082076857=Path776
76561198082092892=commplex
76561198082122768=コウメ
76561198082336040=funnt
76561198082376760=OfficialFON
76561198082403315=Asanscrito
76561198082472837=Sesrian
76561198082629089=Kinless
76561198082772142=Severian
76561198082856495=dragoon-
76561198082895611=GrandKiller
76561198082966599=Punk Cat
76561198082970707=Rensis Coren
76561198082970945=Steve1318
76561198083067918=AppaTheExplorer
76561198083224749=Murphy Maplewood
76561198083298743=☢ SquishyBiscuit ☢
76561198083702991=CMAC
76561198083854042=Kennith
76561198083999268=Tagashim
76561198084066624=bkay201
76561198084077251=◦ꝟᴸᴬᴰᴵᴹᴵᴿ◦
76561198084096272=JNTTNT
76561198084294626=Azo
76561198084455624=Blaui
76561198084658264=Swompik
76561198084677833=Simeio
76561198085239484=Shwammaster
76561198086031795=Black
76561198086363434=Dave.
76561198086507254=neonveinz
76561198086519140=Infusorium
76561198086607725=An Overly British Gentleman
76561198086634191=Orion44
76561198086780066="♈Machine♈"
76561198086891064=WindWpn
76561198087317946=silverkord
76561198087402227=Кхарн Предатель
76561198087648950=sunydeity
76561198087723178=mild bobby sauce
76561198087778591=maik3004
76561198088226122=Spiff MacFusion
76561198088305727=petrik
76561198088920718=Sariohara
76561198088949912=||Dima||
76561198089822875=nathanialkv
76561198089861498=Somon
76561198089899124=Gil God
76561198090019705=helioafer
76561198090505847=Blusey
76561198090719863=mstislavovich
76561198091093352=nekotime
76561198091429535=LKFAdam
76561198091698832=Roxbury
76561198091746179=Gremlin
76561198091805809=Zairase
76561198092107582=jakhar
76561198092588513=★Umbrella★
76561198093331206=Sir. Mono
76561198093426643=Hidrox
76561198093518811=Jean3000
76561198093591198=NasM1412
76561198093852815=Dead inside
76561198093863103=Ster
76561198093911758=Sam G. (Jolzoorh)
76561198093929256=Beriadon
76561198093994456=*:･ﾟ✧MAKC
76561198093998232=Antonio Rossi
76561198094194426=pepito
76561198094420261=NickFrost2012
76561198094706660=Lasershadow
76561198094811830=eightbit1byte
76561198094893085=Grafien
76561198094905060=Stobes
76561198094918560=Snick3rs
76561198095191298=PebotTypato
76561198095887981=Icetyy
76561198095928043=入侵者
76561198096065299=blaqkcatjack
76561198096223887=astrojr1
76561198096418556=accairns
76561198097091406=Snow Hamsters
76561198097424270=bobbyjoe1391
76561198097424570=EdTooTall
76561198097520395=Xenomorph90
76561198097535603=draziw [ドラジウ]
76561198098109074=nR_Exodus
76561198098340500=Wolf
76561198098440829=D-Fault
76561198098979828=copeland.tim
76561198099915427=Reivag
76561198099996692=Masta
76561198100125065=Dorian
76561198100145330=Fatboy
76561198100385991=Harlock
76561198100854269=Aryx
76561198101402161=Eric_Simon
76561198101521706=MQ
76561198101975944=Ryuu
76561198102038871=puckhead
76561198102161041=Electric Toaster
76561198102390345=Honigmensch
76561198102432738=Gooby
76561198102491697=john4brownies
76561198102812397=Stellatik
76561198102900694=sockan
76561198103155031=Thorka66
76561198103341187=Nickel for a Pickle Tickle?
76561198103765503=Fanre5
76561198104256249=Lamaster.D
76561198104310304=gotchabakin
76561198104584664=Matthew
76561198105632156=Jedidiah
76561198105738950=dlashley1993
76561198105845309=VeggeTalesJefferson
76561198105913078=Nomak_VH
76561198106183089=Pallas Athena
76561198106253553=TheRiddic
76561198106296231=Caster of shadows
76561198106300659=typhonb
76561198106336184=Chef-Boy-Ardee
76561198106455633=storiconike
76561198106469799=Peacemaker
76561198106941445=Nick75Gaming
76561198107202494=Thatguychris/trade.tf
76561198107226704=Jackalsaurus
76561198107232066=Grinalbi
76561198107449332=CCCP
76561198107870863=Nastara
76561198108124667=I fucked mid? Sorry i'm Valera
76561198108242220=Dascha
76561198108342092=Mr. Mentlegan
76561198108529051=Okami2013
76561198108544987=Gucci Minh
76561198108847878=killajerk
76561198109583752=jason.tillotson
76561198109752979=kunamiPT
76561198109905804=fishflaps
76561198110334462=KERCHO
76561198110522991=lyudogovskii_mih
76561198110537154=sedric
76561198110559938=Spirit
76561198111281368=pathnotfound
76561198111570328=EpicMashedPotato
76561198112082851=asheppard
76561198112815853=Ete
76561198112866983=TGess
76561198112974754=Kitsune
76561198113329638=DarkFlameX91X
76561198113378668=Scythefox
76561198113443419=Eddy1323
76561198113554102=aminin
76561198113748543=Carodhros
76561198113962871=jbendy
76561198114240452=Rylu
76561198114434396=Amighost
76561198114522554=VebonT
76561198114728998=SnowPsycho
76561198115169656=mendra
76561198115253523=Avril
76561198115406445=knuffelraccoon
76561198115593642=✿ Blinky ♥
76561198115605980=GeeTee
76561198115639927=Sabino Dezio
76561198115678734=DrBalanced
76561198115799439=ShyGuy
76561198115964742=Scinistor
76561198116103025=ρσгτҽг
76561198116217191=Ben Southall
76561198116447002=Fido8127
76561198116679943=castagir
76561198116777707=FelineBLUE
76561198116910198=Aytine
76561198116920351=goulet80
76561198116941112=Skel
76561198116942118=XYZ
76561198117066778=Snowpatrol
76561198117091696=PaPaChrlz
76561198117122377=drou
76561198117138312=small.robot
76561198117194367=NRed
76561198117196740=ShitsOnFire
76561198117383085=Xiutek
76561198117396436=Phantom_Bator
76561198117606520=Yoshkarlupa
76561198117687228=Space Explorer
76561198118212346=wildlight
76561198118294441=etherealmanifestations
76561198118647712=rupethebear
76561198118709568=Valtiel
76561198118936241=manuel
76561198119060183=nobody
76561198119077448=Zedzee
76561198119164388=Snakelecharlatan
76561198119319086=lukgla
76561198119334879=benlucskywalker
76561198119397126=Aismoon
76561198119544233=antho.rg
76561198119608455=Bromance
76561198119629826=DENTIFRICO
76561198119666928=ArSchranKiste
76561198119909211=Kenchi
76561198120282161=DNOnnie
76561198120343345=Dick Von Assman
76561198120591352=Dammitgod
76561198120814419=danymouth
76561198120927987=c00kiecrumbzz
76561198121015978=DragonSire
76561198121306511=Jany_BA
76561198121577256=Hall Monitor
76561198121616766=Gamer Galahad (Civilgamers.com)
76561198121686667=The Tyranid Hive
76561198121765008=Ateraks
76561198122028807=Vaver
76561198122076379=Iver Frost
76561198122215864=Tongo
76561198123054255=Stray Cat
76561198123205016=mettium
76561198123435428=ados
76561198123440379=Uarox
76561198123611646=Man_of_Meat
76561198124096497=Kαиzακı Sαчακα
76561198124163111=Megatron
76561198124323039=Loki_otaku
76561198124365649=UnnamedLegend_GR
76561198124497071=pokusa biskupa
76561198124735744=strabochansky
76561198124947553=ferdi13196
76561198125053107=Emeryt
76561198125134523=RLX
76561198125230805=Kopeerde
76561198125316294=Durgan
76561198125318591=Lokimon
76561198125362619=Desmoswal
76561198125599062=Haty_fr
76561198125613285=olliejordan23
76561198125680006=виталий-3009
76561198125695795=Barney
76561198126479143=SLOT_II
76561198126540152=SpliffStar
76561198127672266=kieren-dohla
76561198127934616=Mero
76561198128189668=Artois Cross
76561198128505537=卡曼德
76561198128508761=Eivind
76561198128509808=pit-rapking
76561198128632325=RookMcCloud
76561198128671524=Commander Keen
76561198128679132=La Leyenda
76561198128700926=songio
76561198129084136=Denegarth
76561198129173190=Breathing is fun
76561198129416324=RustyNail
76561198129555111=crazymachinefan
76561198129614766=Soggy Nugget
76561198130048290=Xaine
76561198130396673=Ragnarök
76561198130444637=i-Jinx
76561198131061274=ChrisGG
76561198131323410=seannybuns
76561198131325415=spaciousspace
76561198131392429=Annah
76561198131512452=Life4Kill
76561198132207764=Silent Omega
76561198132351647=Etayaaw
76561198132417743=JoXW
76561198132594072=Duch
76561198132723557=芽牙乐
76561198132768820=ejlandsberg
76561198132985898=Cerveza
76561198133025407=de_neuker
76561198133282499=T w i s t e r [ Rafa ]
76561198133547239=dsmiddi
76561198133670092=Lungby
76561198133836548=Cheezus Crispes
76561198134115103=namikaze
76561198134404451=Bukazoyd
76561198134665357=DeanDynamite
76561198135017480=KiritoIRC
76561198135581546=Ninja
76561198135598037=Rage_Squid
76561198135883358=Шекельме?
76561198136076777=GoldenAlpharex
76561198136223784=Windows XP
76561198136614101=Pyrio14
76561198136905439=Dusahl
76561198136932886=RubberDuck
76561198137052146=Lobo
76561198137146919=圣王帝释天
76561198137302478=Sogeki-Dono
76561198137383437=Leonardo
76561198138568590=shenyang
76561198139190410=NP932
76561198139196360=EEST255
76561198139207148=antihristpripravnik
76561198139214321=StoryTeller
76561198139758418=RedSage2
76561198140062299=Sonic
76561198140408931=Handsome Spilling™
76561198140435098=Shaackle
76561198140663539=advskel
76561198141000359=Atrayonis
76561198141144372=SPADA
76561198141336805=Professional Coomer
76561198141938324=eco
76561198141946220=zebster33
76561198142252069=hellsh0cked
76561198142364326=Miki
76561198142621907=MyshaTheBrave
76561198142758748=TeaBeee
76561198142764050=❖
76561198142811510=Desdicado
76561198142924061=james1bow
76561198143284253=djersen
76561198143812510=Rekker
76561198144561916=Sher33LS
76561198144654629=Grampuss
76561198144991764=filwright
76561198145143833=Bot 44313E
76561198145838796=6poDuJIkuH
76561198146401948=alesrodsan
76561198146619292=Gaming Unit 69
76561198146766357=angel_matheo_demogorgon
76561198146987897=Erikin84
76561198147043552=DerSmoker
76561198147082464=M15T3RJ
76561198147450859=Harry's Jolly Neighbour
76561198147618225=Aomori
76561198147880975=natsumi_himichi
76561198147959476=Just_Kew
76561198148012963=switch^J
76561198148811345=GALAADSENSE
76561198148924282=[LwJg46][G]Joshi
76561198149093747=Chasovoy
76561198149293262=Maho9x
76561198149559534=Quick Møth
76561198149710842=消失的海岸线.Haianxian
76561198149954764=bladex
76561198150027688=kontana
76561198150064292=bigbeefborris1992
76561198150269302=Laptop46
76561198150553525=Nerd Bird
76561198150810033=宁静致远
76561198150952663=ApocNizmith
76561198150990047=meultjes
76561198151138099=TMP
76561198151142338=Hashiri-ya
76561198151519812=haven
76561198152013901=Insimoniac
76561198152032548=Saint Paulus
76561198152511827=Potato Witch
76561198153141387=SolOmen
76561198153778014=PerilousGard
76561198154359185=DisgruntledSpoonLookingForCereal
76561198155173136=CallejeroGlass
76561198155407726=Fireim
76561198155920337=acerocket
76561198155946959=Roaht
76561198156041605=Leinad
76561198156291221=LesCarottesSontCuites
76561198156347982=LyCroz
76561198156869092=yamamotokaderate
76561198157169624=FoodsieLoots
76561198157947697=MightyBear
76561198158034023=Microsan
76561198158152425=Vincent Fireen
76561198158468723=*  *my ++** stummy *^ ! hurt ! *
76561198159004415=GiantPhildo
76561198159358856=Master Of Puppets
76561198160612918=WB_FangSy
76561198161037016=Garrus Nine
76561198161223149=Aeryn Sun
76561198161381367=LordSot
76561198161514480=stonedwomanfr
76561198162291574=KaralhoMan
76561198162335474=Murdoc741
76561198162349840=DanCyber
76561198163086940=Beutelratte
76561198163169356=Robotnik
76561198163546170=HelB89
76561198164100818=avehnt
76561198164380300=Phantom Fox
76561198164390987=Th232
76561198164591031=MagicalMiser
76561198165309249=ypsyti
76561198165442790=Shizik
76561198166309252=FlowZen
76561198166469745=决裂尼玛
76561198166763536=tgtgns
76561198166818193=Nidhogg
76561198167156310=carcinoGeneticist
76561198167746833=Kibbles
76561198168074532=Frank.Drebin(Spezialeinheit)
76561198168501292=AMAKAY
76561198168759755=Kapre ♡
76561198168910088=Dregowl
76561198169265681=Constaneer
76561198169776115=v1perfan
76561198169816693=XD001
76561198170198683=xer
76561198170312391=chirer0306
76561198170559029=(OlDogs) Miq
76561198170858623=CoffeeAddict
76561198171331423=Folaoute
76561198171526993=Focra
76561198171721086=inteck
76561198172873039=dragontbone1800
76561198172905662=One-eyed Snake
76561198172955878=MyCrowSoft
76561198173047533=✪ he1s
76561198174347823=welshcustard
76561198174400742=RedPig77 gamehag.com
76561198174505107=Ronik_Rem
76561198174562615=Papa Grognon
76561198175057318=13RDX473
76561198176165661=maurocivera
76561198176379234=tagould67
76561198176454703=Gen1n
76561198176504411=DaGammla
76561198176843807=BD-1
76561198176999087=jaguaraouw
76561198177733051=barrettfrank
76561198177896742=emilio.simoes
76561198178400030=Vio8567
76561198178599318=Kurosu
76561198178699694=DIRT
76561198179179303=thepepperboys
76561198179444077=rhuntington
76561198179730965=Sira
76561198179995738=Luquatious
76561198180838558=andrewcoughlan
76561198181031058=diatrima
76561198181854498=Aeon Nox
76561198182507725=Eeveereest
76561198182959443=Rosy Hiccups
76561198183066919=disklight
76561198183100066=Jett Quasar
76561198183950789=iCarlyFan101
76561198184643981=Joe
76561198186551475=POK3R
76561198186754934=энивей
76561198186846558=Roonock
76561198187758841=Balthaczar
76561198188424695=Duck
76561198188429793=mishapo
76561198188813722=nicum96
76561198189212633=Lt.Binary
76561198189433918=socke.001
76561198190906745=THE Galaxy Being
76561198191632821=LBear
76561198191777243=landshark96
76561198192137406=davias.arzgul
76561198192186221=bliros
76561198192302310=Mr. Diop
76561198192361414=julienbelouneh
76561198192526615=jgoltz
76561198193041933=Demon_Gear_FR
76561198193904598=MrK
76561198194032925=tavine008
76561198195424262=BlackWhiteShow
76561198195919090=Constantine
76561198197011231=TribalWarrior92
76561198197450967=ClassicChloey
76561198198144526=Flamethrower270
76561198198541703=ik37
76561198199315323=meowingmeow
76561198200206721=spnk108
76561198200338993=KayDroxFox
76561198200631154=1TmW1
76561198200631154=1thomaswalder1
76561198202643110=dementedavenger
76561198203090948=HuBBie36
76561198204500197=style Fox
76561198204810468=Candy Man
76561198204957343=channur
76561198205392452=Kthskes
76561198205978785=GodRofl
76561198206232389=raven.jones
76561198208745599=rox
76561198209198904=Shmoker
76561198209754504=Heretic
76561198209982035=Crux
76561198210435137=BREMiJASSEY
76561198210505620=King_Maxxx
76561198210729671=Lygtepæl
76561198211694051=Ivor Moss
76561198211851365=Flaper_magl
76561198212109467=sativ mcgold
76561198212363828=TheRealBeef1213
76561198212451767=sem-gubiev
76561198212562913=Procyon
76561198213173580=Loplop42
76561198213493901=Miss me with that
76561198214755565=FIBS
76561198214815163=Oberon
76561198215471417=Pocopotek
76561198215642829=Lady Myers
76561198216659604=Stas Ya.
76561198217553424=QYS3
76561198217858799=Ell3
76561198218111783=Garfeld
76561198219229444=robhoran
76561198219504983=JohnJ
76561198220547875=Dwight Hut Pizza
76561198220951240=Saprtan49
76561198223577940=ZebraStripe
76561198228222996=Quinlan [GER]
76561198231097244=Unholy_Mr_Brown
76561198231260964=aaa1916aaa
76561198231909712=JLANTU
76561198237621554=beestonsteve
76561198239577778=ArcPsy
76561198239708778=r_elleman
76561198240930614=Salty
76561198241018390=CykaCepыйКомпСломал
76561198242649450=VeelYo
76561198242672544=Dumet
76561198242885852=viper1837
76561198243790530=YoDa_SaMa
76561198244047142=AAND
76561198244576144=I Eat Ants
76561198245865188=chrisrighter
76561198245936198=gelo91
76561198246301226=Dolphin
76561198246609346=Jefuslives
76561198247963260=Bizarro
76561198249035532=Chemdragon1
76561198249284874=j.sfromgermany
76561198250640724=Charlotte
76561198252388732=Badger
76561198253581102=LEZMILA13
76561198254488028=Atisis
76561198255491274=DarkBreed
76561198256267871=khaleesi
76561198256500318=One-alone13
76561198257293454=BunnyKing
76561198258118830=Hypno
76561198258279021=skays
76561198259139930=au revoir
76561198259243058=ASRock
76561198260391926=点赞狂魔
76561198260474834=franram
76561198260990107=ANJING
76561198261946957=bulb
76561198262183009=PoTaTOeS
76561198262475277=Devaha
76561198263264666=eldragon
76561198263743240=wildyam2
76561198264102261=MattB
76561198264222680=startrek33
76561198264352046=Magnus das Minion
76561198264907919=CocoricoViveLaFrance
76561198264922592=connorgabe0421
76561198265106422=t411b0y
76561198266178943=Morlock [UA]
76561198267225267=gromsinatr
76561198267660266=KEVIN
76561198268221506=XTSN
76561198269039409=Blake
76561198269529036=Zobio
76561198269602535=wackerhausen
76561198270209133=CrimsonAnomaly
76561198272050337=Dragons And Kittens
76561198272389517=fishiiiw
76561198273741970=3clipseTv
76561198274537899=jp4s
76561198274994858=Ghost
76561198276132021=K.L.Y
76561198277130920=Smiling Knight
76561198277549763=XsectorX1 [HUN]
76561198278292870=the void
76561198278514124=Cazputin
76561198279653153=Sunrider
76561198280072602=Tenji
76561198280348607=Delta
76561198280764246=Side'ler
76561198280963829=Az
76561198281458893=zodiaque3
76561198282522891=VDP5297
76561198282682331=Nido35
76561198283142241=UnerlaubtHD
76561198283566404=WUTPQTPEW
76561198284390683=Alex.Link
76561198284769746=Shaman
76561198285268583=Lilialily
76561198285269172=Vah'nkar
76561198285709052=Obsolete
76561198285900969=AntoniojMG™ | TruckersMP
76561198285928152=Awetisim_Gaming
76561198286938907=Mr.Makaveli
76561198287612696=魂刃
76561198288031391=Timo
76561198288047858=твой старый
76561198288061793=Monster_Joke
76561198288894202=matej.pazourek
76561198289504384=Sonywara
76561198290262410=Russian
76561198290901710=Hatandsandalsguy
76561198291270000=OsorioMit
76561198292173957=AirFord
76561198294096511=Tigrex
76561198294362902=brollyssj4
76561198294424596=r.herczeg
76561198295345657=GorgeousTurnip
76561198296228751=chakalele
76561198296306330=estetrent
76561198296321577=deppyboi
76561198297023659=vladpopoff
76561198297536579=Volk
76561198298519149=Trawets
76561198298647530=MedicIsHere
76561198298782960=KBlack5
76561198299175496=Madosusu
76561198300367467=epicpotato
76561198301122595=Edgy Daddy™
76561198301258972=Nova
76561198301667164=darthdrannel
76561198301707521=Olinos
76561198302714360=求求你让我胡一把
76561198304594055=klatuman
76561198305055822=everways
76561198305815531=trjk1999
76561198306115039=SweetLemon
76561198306418054=Blick_Mondoo
76561198306559598=gerif
76561198306642443=albert.church
76561198306984770=kimdomaine
76561198307610060=Dovamike
76561198307707543=Erchenbrand
76561198308246675=Game Boy
76561198309386883=Uncle Anal
76561198309743796=HowFkAreYou
76561198309915808=WICKEDWAYZ
76561198309982609=2kathpaul
76561198310007881=Maestro Rugosa
76561198310752126=bhz_mlealc
76561198311735375=Iyerakilnan
76561198311938525=vortexligar
76561198312114825=McPeakah Jr
76561198312238963=PsyKongroo
76561198312874957=kliktrak
76561198312879155=erx33
76561198313355809=一只大苹果
76561198313688575=Usurahi
76561198314084482=JPcorp13
76561198314696665=mr.grigory
76561198315117448=Leapinglizard
76561198315269816=destinko
76561198315488952=Rorschach
76561198316054027=salomas.saldanha
76561198316357218=NoGameNoLife
76561198316696707=Floky
76561198316780712=Cicada
76561198317264676=bjustincobb
76561198318635291=ywwy
76561198318774752=DaybreakerY
76561198319070999=Persopei
76561198320451897=Anga Hakuna
76561198322471690=Ashker NMS
76561198322659734=Zen Amatin
76561198322826078=Salgarie
76561198323191671=waspwater
76561198323195014=jeremy_at_home
76561198323408925=freud
76561198323450968=ItsDaHedgehog
76561198324098349=Expod
76561198324122868=LooksLikeYoda
76561198324511333=Pilzle
76561198324576801=axelbarren
76561198324748835=Drako
76561198325562107=grahamhart
76561198325847483=germanmirandasantana
76561198325900504=AGT Ellen Stardust
76561198325937186=MaverX
76561198326179305=chrsplshrk
76561198327086665=General Bryce
76561198327103056=AtomicCraze cs.money
76561198327267177=Oackermann
76561198327585334=Bap Mann
76561198328028795=Graf
76561198328124017=ukmerlin
76561198329724149=Maxstoun
76561198330032367=Buzz  Lightyear
76561198331087514=alvarobt
76561198331349780=color wet
76561198331655901=Th3Fr43k1987
76561198332717868=Stanley Rubick
76561198333835513=RMS
76561198335025031=Sakroface
76561198335211900=谁弄坏我电脑
76561198335702571=GradU8ing
76561198335781660=Amjad Hussain
76561198336079207=st4rl00rd
76561198336152197=Waldo3000
76561198336381869=ENFP GUY
76561198337704039=FourFingerTony
76561198337870226=anonbc2000
76561198338706564=Queijo Castelões
76561198342736930=Wad'
76561198342949812=dghfdgj
76561198343586000=Endl_ess
76561198344400106=anthonyrobertscott
76561198344481206=soukagames
76561198345168521=Kalimbato
76561198346883240=Zenith
76561198347370772=局外人
76561198348032149=viv
76561198348204036=SmegHead
76561198348798846=没女朋友自己扮
76561198351647974=Pain Project
76561198352697670=Metaknight1978
76561198353835538=Bahmun
76561198354105082=Romultra
76561198354517470=NoniBear
76561198355409457=Chriswasabii
76561198356115695=axiomstar
76561198357225151=FanLyuor
76561198357258922=Anonim
76561198358470940=2285995303
76561198358606501=yusephe
76561198358839468=DCthebear
76561198360489171=吉祥如意
76561198361482118=darkshadow543
76561198361682596=Soda
76561198361695486=kefir111
76561198363842004=雨文
76561198366094516=[UK] jfowleryt
76561198367395755=luizillo
76561198367673015=TenguKnight
76561198369104989=floridalizard
76561198369522851=Lucas Wu
76561198369598673=STUPID HUMAN
76561198369731288=born4poker
76561198371634616=lashbrooke
76561198371763360=一米二
76561198372566131=Rudolf
76561198373336070=SamDrabulog
76561198373933352=I Love Emilia
76561198374372640=gamamew
76561198374889569=Knollemann
76561198375553584=jimmytwofist
76561198376189741=Meraxes
76561198377909091=JetBoggs2380
76561198378710634=Herb520
76561198380597081=Saboteur_92
76561198382614808=Fatty Birb
76561198383462289=Miki Troy
76561198383473714=FistingBlisters
76561198383754182=Nice Bully
76561198385259472=Дядька Сашка
76561198388616980=Robys™
76561198390579223=Not so Grumpy
76561198391767049=LynxThinks
76561198392196511=Spektral
76561198392324082=SHRIKE
76561198395246789=sapereaudii
76561198397462436=Hannibal_TheHacker
76561198397938395=R0LAND
76561198398303188=stepgen1
76561198398311122=820375233
76561198398315838=Antler'
76561198398819533=大树
76561198399550646=CMML
76561198399910687=Lousef
76561198400133356=Newbs-R-Us
76561198400179018=Eljolo
76561198401384769=ashfacta69
76561198401892335=CORINTHIAN-BLUE
76561198402266388=d.zayceff
76561198402745274=drsardonica
76561198403440897=martinlaure
76561198404719290=Sir Blackstyle
76561198404859024=DirtyLootz
76561198408109780=professorfredy
76561198408156123=老先生
76561198408635469=249491085
76561198411121675=ninjades
76561198411172948=Elias
76561198411495006=am
76561198413171012=Je-Nas
76561198416072419=rusrace
76561198421183786=xMrSinisx
76561198421788783=Morax41
76561198422550201=我亦成风
76561198423988749=BlackDragon
76561198424307207=Saitama
76561198424660296=罗romm
76561198424820369=Dizern
76561198425991601=四娃
76561198426035415=solenne
76561198428105893=Mushroom
76561198429183927=PermadeathKing
76561198429243378=TH
76561198431784390=GuitarGamer9998
76561198431800233=Tsugumo Hanshiro
76561198431990245=ProxJega
76561198432127600=chubalgu
76561198433215749=Puck Sama
76561198437840192=宿书四季
76561198437935091=黑鹭1
76561198438108852=dan
76561198438155613=thrillbourne
76561198438877921=*DJ_ИзОлИрОвАннЫй*
76561198439938466=VickyZero
76561198442604680=r1zputin
76561198446748047=Makrush
76561198447549343=icchan4327
76561198448574809=Negan
76561198448699094=ezMan
76561198450055595=沐谨
76561198451861352=Biu-ChengYing
76561198452094379=jstN0body
76561198452384270=Hygge
76561198453172685=清墨歌汐
76561198795792246=Abasin
76561198798535190=雪见小梅
76561198799177926=TheLasagnaHog
76561198801810173=Farted and Sharted
76561198802092066=TLoc_btu
76561198802394156=yuyukoSama
76561198804588455=vltesse
76561198804826793=Rem 11
76561198805087472=Error 404
76561198805134581=VikiTheDog
76561198806421909=percho
76561198807726925=无法忘却的旋律
76561198807917661=Cobamboo
76561198809282964=VLADOSSS
76561198813272572=Drakkster
76561198813688964=Thal'drak
76561198814325706=retquarken21
76561198815222428=KesekuchenTv
76561198818082072=十滴水
76561198819245338=Fedor
76561198819580014=猛男十六A
76561198819919983=Nameless.Player
76561198819919983=Noop
76561198820722634=todd7
76561198821798814=dan.w.10
76561198822873542=clsnyder34
76561198822896456=emmettdj
76561198825250706=JC_uK
76561198825458588=JUDAS
76561198826554249=Torsan
76561198826579490=CHAOS
76561198828221803=964384866
76561198831249487=kuba_1
76561198831745245=Dobro
76561198831967244=Ripperjack
76561198836138359=Artemisa
76561198836742583=Playing4ever
76561198837478235=Valetum_
76561198839258273=The Golden Gek
76561198840115607=Quinarx
76561198841615635=CHINAchengzi
76561198842005299=Mr.NaNaShi-999
76561198842167315=Danilow28
76561198842333730=Vuzz Voom
76561198842899494=maurodinisio90
76561198844320586=NMSPlayer
76561198845038797=クラ
76561198845397779=el-max14
76561198845530465=credhc
76561198845560524=ardyalligan
76561198846159404=1026822577
76561198847690625=TH0RNBERRY
76561198848856837=Drevnebor
76561198849874989=Ray_Z06
76561198850073537=mombands
76561198850342291=Gilbert Gosseyn
76561198850472406=牛肉
76561198850587144=KillYou
76561198851519055=Space Explorer
76561198851951872=sb413197
76561198852746810=ACinMOTION
76561198852928856=fjolnir_odinsen
76561198854072848=spinrv
76561198855272702=jb007600
76561198855845760=13950380784
76561198859473608=RE_TEIXEIRA
76561198862027975=Zipietro
76561198862475109=andr99ru
76561198863461507=Jozef559
76561198863645534=Cudosay
76561198864045718=kamikawa
76561198864724562=Ezmis
76561198866673343=Perplexing
76561198867878137=Cervidian
76561198867914400=Ellecious
76561198868212080=Don Mario
76561198869106598=Daisy Gatsby
76561198872572731=TheThiccLamp
76561198872837404=gd8338
76561198873456819=Darth Mushu
76561198873764625=Jazzmine
76561198876873397=liamrwolf
76561198876942868=Corvus
76561198877171706=二代目Petani
76561198878945161=mwareham01
76561198879131466=Buckets
76561198880057342=Someone
76561198881911316=UDAV
76561198886864576=JIANGCHUN
76561198890837317=hazn85
76561198891599601=aphix.blacksquid
76561198900511914=Harry Lime
76561198903572909=Garden Variety Necromancer
76561198906678506=836838841
76561198913614100=MoxieJeff
76561198917966257=garymorgan33058
76561198928719050=глина_феи
76561198928889489=白烛葵
76561198932326242=24
76561198936247798=svyaz007
76561198938129047=Liu Zhang Xie
76561198941556418=Aelago
76561198942961738=donbenben.dbb
76561198948702850=bloodbrax fr
76561198951522618=Sim0ne_
76561198951606960=Mykaell
76561198959933634=Лорд Алекс
76561198960950779=Calinseli
76561198961958287=aykedmond200169
76561198962094223=Just a frog
76561198963360603=20081001
76561198963984431=2343546234324324
76561198965291557=rjmerit
76561198965826218=Freedom
76561198968210812=EAMVeto
76561198969152888=herr_holle_4
76561198970269024=MasterMike
76561198970349689=cfmoyoGT650
76561198972890531=mailforroland
76561198973655013=gar93274
76561198977920869=BigNugz
76561198978064537=belchoco1926
76561198983237049=forsedopo
76561198985468954=postbaroque
76561198986301328=Kirito
76561198987306137=Sleepy Hollow
76561198990696437=Shaadowbear
76561198991820140=Wile E. Coyote
76561198992011724=hitman.011.org
76561198992416695=暮归
76561198994708723=Oshe_shango
76561198994976738=cibox160
76561198995718035=maximus958700
76561198995873957=akinyilmaz2002
76561199000389412=火人人
76561199001685329=Seph
76561199002538678=Waibryte
76561199004551619=Rubin
76561199005747875=mystikmom
76561199006184305=Whisper
76561199006442484=.
76561199006737497=AMANZOOOH!
76561199006737497=Invitees to another galaxy
76561199006737497=lexsus1898289
76561199007511987=Herbo
76561199007580003=J.L.Picard
76561199008523974=PandaLu91
76561199008539312=yurazozulin
76561199011705436=Nofµn_Wyzen
76561199011969777=Schrödinger
76561199013938811=OrezCuLapte
76561199014112307=affegorr
76561199014693087=adnanozen*****
76561199017812365=eminov.19761976
76561199019527967=arghnonral
76561199024931880=doi4inov
76561199025465184=fatum_n
76561199026656498=Night_Owl096
76561199030882796=honbunch2012
76561199035496227=Angelina@Amsterdam
76561199053455829=meatball
76561199062318093=rrringril
76561199067476246=Scalu
76561199073031793=jennyh2os
76561199084771924=Lily Moonlight
773679627CC1FC50=Kape
799FFF347A017DED=skylander74
8250C10F363C2EB5=Franyest
8BB3320C32958588=tromignon974
8F0D0DF0ED1314A3=Nikola
9156169C0D9DCC5F=jet55x
91C3F2874F04359F=AbanameOsCocos
94EBFF8AC64B6306=Blakomatik
97AB22BD8CE910EA=KasiRec
A047F8B577C3FA65=Khammul
A396CABD6C7663C=feios
AB0C039737E89346=Hexorcist
ADC17495436A6F06=Mr Joker#8521
ADEBD68DB243563F=Captain Woife666 van de Morgan
B1FB9C84FE26441E=[RIP] NapalmNorris
B661A8367F582EA5=Dota2职业选手
B7B2B00039684C4B=名字长点不可以啊
B95619DED3566E22=david_eggi
C48F5C111EDF0183=vero
CCA7DD01195D8CB4=nixomand
CDB0346F096B585C=花未眠
CFFF6A5321F18F8D=Mayhem
D52C30EDD10D3987=B5 Banna
DA47834561B7F3D4=EnderofThings
DA558BBB71CD7089=Fireclaw
DC30AA49DCBAB980=Chinstrap
E3BE9797F3468569=monkey0wns
E5B83E5E9B95A787=ninja4ever
E9663B9ADC26FC9C=Lystraeus
E9A859463B69662F=Schwarzherz42
F63A992C3C6246E8=Sauron
F843B5B5F906EA67=THORV25
FBA2805FF835D236=[PVG]MRPlNK
FC7387194D034FA9=Coremosh
FD1538D13A810846=eliasmilano79
FFB93FFC36DB37B6=Skylex0812
FFBCE979ABA7A6D6=TheKharjo
